Frequency Analysis
Freq,Power
-14.99 , 0.000284304627962
-14.97 , 0.000271842566481
-14.95 , 0.00025810272431
-14.93 , 0.000243263855694
-14.91 , 0.000227520163093
-14.89 , 0.000211078494631
-14.87 , 0.000194155342494
-14.85 , 0.000176973686823
-14.83 , 0.000159759732249
-14.81 , 0.000142739586056
-14.79 , 0.00012613592815
-14.77 , 0.000110164723354
-14.75 , 9.50320261383e-05
-14.73 , 8.09309267743e-05
-14.71 , 6.80386859139e-05
-14.69 , 5.65141019727e-05
-14.67 , 4.649515232e-05
-14.65 , 3.80969452748e-05
-14.63 , 3.14100153081e-05
-14.61 , 2.64989887301e-05
-14.59 , 2.34016415717e-05
-14.57 , 2.21283654376e-05
-14.55 , 2.26620509009e-05
-14.53 , 2.49583916223e-05
-14.51 , 2.89466059078e-05
-14.49 , 3.45305659681e-05
-14.47 , 4.15903188069e-05
-14.45 , 4.99839765476e-05
-14.43 , 5.95499482013e-05
-14.41 , 7.0109479476e-05
-14.39 , 8.14694623119e-05
-14.37 , 9.34254714849e-05
-14.35 , 0.000105764981912
-14.33 , 0.000118270717291
-14.31 , 0.000130724078439
-14.29 , 0.000142908598253
-14.27 , 0.000154613369542
-14.25 , 0.000165636392177
-14.23 , 0.00017578778703
-14.21 , 0.000184892825999
-14.19 , 0.000192794730062
-14.17 , 0.000199357190712
-14.15 , 0.000204466574236
-14.13 , 0.000208033773052
-14.11 , 0.000209995673723
-14.09 , 0.000210316217049
-14.07 , 0.000208987031982
-14.05 , 0.00020602763165
-14.03 , 0.000201485166605
-14.01 , 0.000195433737337
-13.99 , 0.000187973275011
-13.97 , 0.000179228006221
-13.95 , 0.000169344524174
-13.93 , 0.000158489495014
-13.91 , 0.000146847033888
-13.89 , 0.000134615790744
-13.87 , 0.000122005790615
-13.85 , 0.000109235077281
-13.83 , 9.65262125406e-05
-13.81 , 8.41026859044e-05
-13.79 , 7.2185291229e-05
-13.77 , 6.09885276684e-05
-13.75 , 5.07170822451e-05
-13.73 , 4.15624503964e-05
-13.71 , 3.36997489977e-05
-13.69 , 2.72847736428e-05
-13.67 , 2.24513484115e-05
-13.65 , 1.93090120188e-05
-13.63 , 1.79410791858e-05
-13.61 , 1.84031103755e-05
-13.59 , 2.07218167776e-05
-13.57 , 2.48944207044e-05
-13.55 , 3.08884844742e-05
-13.53 , 3.864221352e-05
-13.51 , 4.80652319828e-05
-13.49 , 5.90398215458e-05
-13.47 , 7.14226068596e-05
-13.45 , 8.50466637109e-05
-13.43 , 9.97240192187e-05
-13.41 , 0.000115248506909
-13.39 , 0.000131398933626
-13.37 , 0.000147942509991
-13.35 , 0.000164638491574
-13.33 , 0.000181241974248
-13.31 , 0.000197507784294
-13.29 , 0.000213194401927
-13.27 , 0.0002280678559
-13.25 , 0.00024190552683
-13.23 , 0.000254499797902
-13.21 , 0.000265661493532
-13.19 , 0.000275223049496
-13.17 , 0.000283041361856
-13.15 , 0.000289000266723
-13.13 , 0.000293012608365
-13.11 , 0.000295021859384
-13.09 , 0.000295003263529
-13.07 , 0.000292964479046
-13.05 , 0.000288945708236
-13.03 , 0.000283019306965
-13.01 , 0.000275288876065
-12.99 , 0.000265887844838
-12.97 , 0.000254977565065
-12.95 , 0.000242744941822
-12.93 , 0.000229399635074
-12.91 , 0.000215170873085
-12.89 , 0.000200303925263
-12.87 , 0.000185056287899
-12.85 , 0.000169693641313
-12.83 , 0.000154485641086
-12.81 , 0.000139701609278
-12.79 , 0.000125606193759
-12.77 , 0.00011245506488
-12.75 , 0.000100490718822
-12.73 , 8.99384558935e-05
-12.71 , 8.10025999238e-05
-12.69 , 7.38630217162e-05
-12.67 , 6.86720252901e-05
-12.65 , 6.55516504512e-05
-12.63 , 6.45914391363e-05
-12.61 , 6.58467060725e-05
-12.59 , 6.93373466743e-05
-12.57 , 7.50472068895e-05
-12.55 , 8.29240310112e-05
-12.53 , 9.28799944421e-05
-12.51 , 0.000104792819159
-12.49 , 0.000118507460323
-12.47 , 0.000133838343265
-12.45 , 0.000150572121089
-12.43 , 0.000168470914522
-12.41 , 0.000187275987528
-12.39 , 0.000206711804758
-12.37 , 0.000226490410205
-12.35 , 0.00024631606063
-12.33 , 0.000265890042482
-12.31 , 0.000284915597312
-12.29 , 0.000303102878008
-12.27 , 0.000320173856786
-12.25 , 0.000335867105656
-12.23 , 0.000349942371131
-12.21 , 0.000362184867208
-12.19 , 0.000372409214191
-12.17 , 0.000380462955572
-12.15 , 0.000386229591022
-12.13 , 0.00038963107035
-12.11 , 0.000390629701118
-12.09 , 0.000389229431205
-12.07 , 0.00038547647695
-12.05 , 0.00037945927744
-12.03 , 0.000371307765819
-12.01 , 0.000361191959144
-11.99 , 0.000349319878996
-11.97 , 0.000335934825767
-11.95 , 0.000321312039949
-11.93 , 0.000305754793841
-11.91 , 0.000289589966591
-11.89 , 0.000273163164309
-11.87 , 0.000256833454958
-11.85 , 0.000240967794709
-11.83 , 0.000225935228367
-11.81 , 0.000212100951133
-11.79 , 0.00019982032239
-11.77 , 0.000189432924244
-11.75 , 0.000181256758177
-11.73 , 0.000175582672401
-11.71 , 0.000172669110228
-11.69 , 0.000172737266177
-11.67 , 0.00017596673145
-11.65 , 0.000182491704091
-11.63 , 0.000192397831517
-11.61 , 0.000205719744401
-11.59 , 0.00022243933111
-11.57 , 0.000242484791259
-11.55 , 0.000265730495597
-11.53 , 0.000291997667465
-11.51 , 0.000321055888782
-11.49 , 0.000352625420924
-11.47 , 0.000386380318358
-11.45 , 0.000421952300472
-11.43 , 0.000458935335021
-11.41 , 0.00049689087516
-11.39 , 0.000535353681258
-11.37 , 0.000573838148868
-11.35 , 0.000611845055434
-11.33 , 0.000648868630771
-11.31 , 0.000684403850081
-11.29 , 0.000717953843538
-11.27 , 0.000749037313176
-11.25 , 0.00077719584623
-11.23 , 0.000802001014061
-11.21 , 0.000823061147486
-11.19 , 0.000840027682702
-11.17 , 0.00085260097696
-11.15 , 0.00086053549972
-11.13 , 0.000863644313083
-11.11 , 0.000861802764756
-11.09 , 0.000854951327536
-11.07 , 0.000843097531163
-11.05 , 0.000826316945191
-11.03 , 0.000804753185148
-11.01 , 0.000778616928401
-10.99 , 0.000748183940719
-10.97 , 0.000713792129247
-10.95 , 0.000675837652251
-10.93 , 0.000634770130401
-10.91 , 0.000591087018258
-10.89 , 0.000545327207794
-10.87 , 0.000498063948092
-10.85 , 0.0004498971765
-10.83 , 0.000401445366442
-10.81 , 0.000353337005489
-10.79 , 0.000306201824158
-10.77 , 0.000260661901044
-10.75 , 0.000217322773206
-10.73 , 0.000176764682204
-10.71 , 0.000139534085676
-10.69 , 0.000106135561998
-10.67 , 7.70242311922e-05
-10.65 , 5.25988090945e-05
-10.63 , 3.31954037676e-05
-10.61 , 1.90821534354e-05
-10.59 , 1.04547939323e-05
-10.57 , 7.43323093306e-06
-10.55 , 1.00591782516e-05
-10.53 , 1.82949084541e-05
-10.51 , 3.2023146139e-05
-10.49 , 5.10481177144e-05
-10.47 , 7.50977546025e-05
-10.45 , 0.00010382702975
-10.43 , 0.000136822390393
-10.41 , 0.000173607233453
-10.39 , 0.00021364835398
-10.37 , 0.000256363281969
-10.35 , 0.000301128408849
-10.33 , 0.000347287792246
-10.31 , 0.000394162516448
-10.29 , 0.000441060476462
-10.27 , 0.00048728644594
-10.25 , 0.000532152283569
-10.23 , 0.000574987128944
-10.21 , 0.000615147437539
-10.19 , 0.000652026705177
-10.17 , 0.000685064735428
-10.15 , 0.000713756308562
-10.13 , 0.000737659118053
-10.11 , 0.00075640085004
-10.09 , 0.000769685292516
-10.07 , 0.000777297374149
-10.05 , 0.00077910704743
-10.03 , 0.00077507194701
-10.01 , 0.000765238771468
-9.99 , 0.000749743355101
-9.97 , 0.000728809415311
-9.95 , 0.000702745980625
-9.93 , 0.000671943523925
-9.91 , 0.000636868844909
-9.89 , 0.000598058764733
-9.87 , 0.000556112714066
-9.85 , 0.000511684313009
-9.83 , 0.000465472057326
-9.81 , 0.00041820923986
-9.79 , 0.000370653248778
-9.77 , 0.000323574394996
-9.75 , 0.000277744429823
-9.73 , 0.000233924920187
-9.71 , 0.000192855652797
-9.69 , 0.000155243240054
-9.67 , 0.0001217500995
-9.65 , 9.29839749896e-05
-9.63 , 6.94881616969e-05
-9.61 , 5.1732588484e-05
-9.59 , 4.01059002866e-05
-9.57 , 3.49086700303e-05
-9.55 , 3.63478544275e-05
-9.53 , 4.45325909811e-05
-9.51 , 5.94714148808e-05
-9.49 , 8.10709544682e-05
-9.47 , 0.000109136142855
-9.45 , 0.000143371961393
-9.43 , 0.000183386708321
-9.41 , 0.000228696763409
-9.39 , 0.000278732797041
-9.37 , 0.000332847350331
-9.35 , 0.000390323691832
-9.33 , 0.000450385836476
-9.31 , 0.000512209593945
-9.29 , 0.000574934496886
-9.27 , 0.000637676444674
-9.25 , 0.000699540885838
-9.23 , 0.000759636352188
-9.21 , 0.000817088150131
-9.19 , 0.000871052009928
-9.17 , 0.000920727491655
-9.15 , 0.000965370947618
-9.13 , 0.00100430784483
-9.11 , 0.00103694425787
-9.09 , 0.00106277735216
-9.07 , 0.00108140468971
-9.05 , 0.00109253220456
-9.03 , 0.00109598071226
-9.01 , 0.0010916908369
-8.99 , 0.00107972626102
-8.97 , 0.00106027522602
-8.95 , 0.00103365023553
-8.93 , 0.00100028593887
-8.91 , 0.00096073519794
-8.89 , 0.000915663366741
-8.87 , 0.000865840838715
-8.85 , 0.000812133942711
-8.83 , 0.00075549429283
-8.81 , 0.000696946720942
-8.79 , 0.000637575942475
-8.77 , 0.000578512126036
-8.75 , 0.00052091555522
-8.73 , 0.000465960586253
-8.71 , 0.00041481911771
-8.69 , 0.000368643798222
-8.67 , 0.000328551204704
-8.65 , 0.000295605226961
-8.63 , 0.000270800894694
-8.61 , 0.000255048879624
-8.59 , 0.000249160898962
-8.57 , 0.000253836236618
-8.55 , 0.00026964958561
-8.53 , 0.000297040399204
-8.51 , 0.000336303919549
-8.49 , 0.000387584031297
-8.47 , 0.000450868064079
-8.45 , 0.000525983642164
-8.43 , 0.00061259765239
-8.41 , 0.000710217372998
-8.39 , 0.000818193776629
-8.37 , 0.000935726990881
-8.35 , 0.00106187386994
-8.33 , 0.00119555760117
-8.31 , 0.00133557924189
-8.29 , 0.00148063105366
-8.27 , 0.00162931147577
-8.25 , 0.00178014155503
-8.23 , 0.00193158262751
-8.21 , 0.00208205502869
-8.19 , 0.00222995759179
-8.17 , 0.00237368768159
-8.15 , 0.00251166150073
-8.13 , 0.00264233439961
-8.11 , 0.0027642209183
-8.09 , 0.00287591429016
-8.07 , 0.00297610514157
-8.05 , 0.00306359913079
-8.03 , 0.0031373332813
-8.01 , 0.00319639078026
-7.99 , 0.00324001403187
-7.97 , 0.00326761577715
-7.95 , 0.00327878811638
-7.93 , 0.00327330929737
-7.91 , 0.0032511481621
-7.89 , 0.00321246617464
-7.87 , 0.0031576169859
-7.85 , 0.003087143523
-7.83 , 0.00300177262486
-7.81 , 0.00290240727843
-7.79 , 0.0027901165428
-7.77 , 0.00266612328007
-7.75 , 0.00253178984197
-7.73 , 0.00238860188973
-7.71 , 0.00223815055079
-7.69 , 0.00208211313918
-7.67 , 0.00192223268731
-7.65 , 0.00176029655372
-7.63 , 0.00159811438537
-7.61 , 0.00143749572281
-7.59 , 0.00128022754276
-7.57 , 0.00112805203465
-7.55 , 0.000982644905838
-7.53 , 0.000845594504084
-7.51 , 0.000718382035982
-7.49 , 0.000602363146266
-7.47 , 0.000498751105356
-7.45 , 0.000408601831595
-7.43 , 0.000332800950513
-7.41 , 0.000272053066446
-7.39 , 0.000226873392358
-7.37 , 0.000197581852138
-7.35 , 0.000184299736351
-7.33 , 0.000186948957963
-7.31 , 0.000205253919283
-7.29 , 0.000238745965904
-7.27 , 0.000286770368107
-7.25 , 0.000348495735645
-7.23 , 0.00042292573846
-7.21 , 0.000508912974164
-7.19 , 0.000605174793519
-7.17 , 0.000710310868114
-7.15 , 0.000822822260222
-7.13 , 0.000941131733991
-7.11 , 0.00106360502971
-7.09 , 0.00118857280947
-7.07 , 0.00131435297284
-7.05 , 0.00143927303617
-7.03 , 0.00156169226764
-7.01 , 0.00168002327359
-6.99 , 0.00179275273919
-6.97 , 0.00189846103778
-6.95 , 0.00199584043928
-6.93 , 0.00208371166696
-6.91 , 0.00216103857543
-6.89 , 0.0022269407484
-6.87 , 0.00228070384428
-6.85 , 0.00232178754905
-6.83 , 0.00234983102964
-6.81 , 0.00236465581628
-6.79 , 0.00236626607865
-6.77 , 0.00235484629763
-6.75 , 0.0023307563716
-6.73 , 0.00229452423276
-6.71 , 0.00224683608469
-6.69 , 0.00218852440667
-6.67 , 0.00212055390242
-6.65 , 0.00204400560087
-6.63 , 0.00196005934383
-6.61 , 0.00186997491892
-6.59 , 0.00177507211669
-6.57 , 0.00167671000709
-6.55 , 0.00157626574273
-6.53 , 0.00147511320445
-6.51 , 0.00137460180806
-6.49 , 0.00127603579017
-6.47 , 0.00118065428548
-6.45 , 0.00108961249793
-6.43 , 0.00100396425359
-6.41 , 0.000924646204689
-6.39 , 0.000852463931766
-6.37 , 0.000788080164495
-6.35 , 0.000732005312513
-6.33 , 0.000684590465045
-6.31 , 0.000646022983269
-6.29 , 0.000616324772465
-6.27 , 0.000595353282598
-6.25 , 0.00058280524658
-6.23 , 0.000578223125629
-6.21 , 0.000581004191412
-6.19 , 0.000590412135598
-6.17 , 0.000605591059595
-6.15 , 0.000625581661101
-6.13 , 0.000649339400277
-6.11 , 0.000675754397176
-6.09 , 0.000703672784171
-6.07 , 0.000731919212738
-6.05 , 0.00075932019361
-6.03 , 0.000784727933169
-6.01 , 0.000807044317377
-5.99 , 0.000825244687675
-5.97 , 0.000838401051236
-5.95 , 0.000845704370888
-5.93 , 0.000846485587796
-5.91 , 0.000840235042682
-5.89 , 0.000826619978706
-5.87 , 0.000805499831071
-5.85 , 0.000776939034524
-5.83 , 0.000741217110077
-5.81 , 0.000698835825914
-5.79 , 0.000650523264287
-5.77 , 0.000597234665736
-5.75 , 0.000540149963629
-5.73 , 0.000480667965365
-5.71 , 0.00042039718101
-5.69 , 0.000361143345016
-5.67 , 0.000304893721533
-5.65 , 0.000253798327953
-5.63 , 0.000210148254202
-5.61 , 0.000176351296342
-5.59 , 0.000154905161709
-5.57 , 0.000148368538528
-5.55 , 0.000159330355329
-5.53 , 0.00019037758394
-5.51 , 0.00024406196414
-5.49 , 0.0003228660477
-5.47 , 0.000429168974339
-5.45 , 0.000565212401871
-5.43 , 0.000733067017213
-5.41 , 0.000934600054094
-5.39 , 0.00117144423698
-5.37 , 0.00144496855924
-5.35 , 0.00175625128658
-5.33 , 0.00210605555528
-5.31 , 0.00249480790774
-5.29 , 0.00292258007716
-5.27 , 0.00338907429753
-5.25 , 0.00389361237684
-5.23 , 0.00443512872843
-5.21 , 0.00501216751156
-5.19 , 0.00562288398431
-5.17 , 0.00626505012417
-5.15 , 0.00693606452128
-5.13 , 0.0076329665
-5.11 , 0.00835245437407
-5.09 , 0.0090909076921
-5.07 , 0.00984441328241
-5.05 , 0.0106087948606
-5.03 , 0.0113796459208
-5.01 , 0.0121523655905
-4.99 , 0.0129221970949
-4.97 , 0.0136842684418
-4.95 , 0.0144336349115
-4.93 , 0.0151653229146
-4.91 , 0.01587437476
-4.89 , 0.0165558938648
-4.87 , 0.0172050899287
-4.85 , 0.0178173235966
-4.83 , 0.0183881501337
-4.81 , 0.0189133616491
-4.79 , 0.0193890274164
-4.77 , 0.0198115318629
-4.75 , 0.0201776098194
-4.73 , 0.0204843786559
-4.71 , 0.0207293669601
-4.69 , 0.0209105394536
-4.67 , 0.0210263178816
-4.65 , 0.0210755976561
-4.63 , 0.0210577600782
-4.61 , 0.0209726800144
-4.59 , 0.0208207289489
-4.57 , 0.0206027733866
-4.55 , 0.0203201686296
-4.53 , 0.0199747480009
-4.51 , 0.0195688076357
-4.49 , 0.0191050870098
-4.47 , 0.0185867454185
-4.45 , 0.0180173346596
-4.43 , 0.0174007682156
-4.41 , 0.0167412872648
-4.39 , 0.0160434238803
-4.37 , 0.0153119618057
-4.35 , 0.0145518952168
-4.33 , 0.0137683858975
-4.31 , 0.0129667192696
-4.29 , 0.012152259725
-4.27 , 0.01133040571
-4.25 , 0.0105065450117
-4.23 , 0.00968601068465
-4.21 , 0.00887403804817
-4.19 , 0.00807572316508
-4.17 , 0.00729598319211
-4.15 , 0.0065395189671
-4.13 , 0.00581078016913
-4.11 , 0.00511393335488
-4.09 , 0.0044528331399
-4.07 , 0.00383099675522
-4.05 , 0.00325158217042
-4.03 , 0.00271736993296
-4.01 , 0.00223074883132
-3.99 , 0.00179370544713
-3.97 , 0.00140781761862
-3.95 , 0.00107425179572
-3.93 , 0.0007937642262
-3.91 , 0.000566705872414
-3.89 , 0.000393030920662
-3.87 , 0.000272308709806
-3.85 , 0.000203738872954
-3.83 , 0.000186169456461
-3.81 , 0.000218117754004
-3.79 , 0.000297793570714
-3.77 , 0.000423124613206
-3.75 , 0.00059178368614
-3.73 , 0.000801217364722
-3.71 , 0.00104867580536
-3.69 , 0.0013312433535
-3.67 , 0.00164586960854
-3.65 , 0.0019894006103
-3.63 , 0.00235860982002
-3.61 , 0.00275022858079
-3.59 , 0.00316097575761
-3.57 , 0.00358758627555
-3.55 , 0.00402683829555
-3.53 , 0.00447557879108
-3.51 , 0.00493074731423
-3.49 , 0.00538939776729
-3.47 , 0.0058487180246
-3.45 , 0.00630604727907
-3.43 , 0.00675889101782
-3.41 , 0.00720493356225
-3.39 , 0.00764204813778
-3.37 , 0.00806830446828
-3.35 , 0.00848197391926
-3.33 , 0.00888153224131
-3.31 , 0.00926565999144
-3.29 , 0.0096332407344
-3.27 , 0.0099833571482
-3.25 , 0.0103152851781
-3.23 , 0.010628486401
-3.21 , 0.0109225987769
-3.19 , 0.0111974259768
-3.17 , 0.0114529254858
-3.15 , 0.0116891956861
-3.13 , 0.0119064621305
-3.11 , 0.0121050632156
-3.09 , 0.0122854354654
-3.07 , 0.0124480986283
-3.05 , 0.0125936407883
-3.03 , 0.0127227036782
-3.01 , 0.0128359683752
-2.99 , 0.0129341415442
-2.97 , 0.0130179423813
-2.95 , 0.0130880903926
-2.93 , 0.0131452941289
-2.91 , 0.013190240976
-2.89 , 0.0132235880844
-2.87 , 0.0132459545018
-2.85 , 0.0132579145545
-2.83 , 0.0132599925016
-2.81 , 0.0132526584728
-2.79 , 0.0132363256775
-2.77 , 0.0132113488588
-2.75 , 0.0131780239499
-2.73 , 0.0131365888751
-2.71 , 0.0130872254237
-2.69 , 0.0130300621146
-2.67 , 0.0129651779576
-2.65 , 0.0128926070103
-2.63 , 0.0128123436206
-2.61 , 0.0127243482421
-2.59 , 0.0126285537038
-2.57 , 0.0125248718158
-2.55 , 0.0124132001918
-2.53 , 0.0122934291716
-2.51 , 0.0121654487277
-2.49 , 0.0120291552502
-2.47 , 0.0118844581024
-2.45 , 0.0117312858557
-2.43 , 0.0115695921114
-2.41 , 0.0113993608352
-2.39 , 0.0112206111329
-2.37 , 0.011033401411
-2.35 , 0.0108378328739
-2.33 , 0.0106340523231
-2.31 , 0.0104222542331
-2.29 , 0.0102026820907
-2.27 , 0.00997562899522
-2.25 , 0.00974143752817
-2.23 , 0.00950049891007
-2.21 , 0.00925325147239
-2.19 , 0.00900017848085
-2.17 , 0.00874180535423
-2.15 , 0.00847869632995
-2.13 , 0.00821145063348
-2.11 , 0.00794069821363
-2.09 , 0.00766709510986
-2.07 , 0.00739131852032
-2.05 , 0.0071140616414
-2.03 , 0.00683602835007
-2.01 , 0.0065579278002
-1.99 , 0.00628046900275
-1.97 , 0.00600435545755
-1.95 , 0.00573027990146
-1.93 , 0.00545891923382
-1.91 , 0.00519092967588
-1.89 , 0.00492694221547
-1.87 , 0.00466755838308
-1.85 , 0.00441334639924
-1.83 , 0.004164837727
-1.81 , 0.00392252405672
-1.79 , 0.00368685474411
-1.77 , 0.00345823471555
-1.75 , 0.0032370228485
-1.73 , 0.00302353082855
-1.71 , 0.00281802247826
-1.69 , 0.00262071354776
-1.67 , 0.00243177195133
-1.65 , 0.00225131842954
-1.63 , 0.00207942761204
-1.61 , 0.00191612945236
-1.59 , 0.00176141100275
-1.57 , 0.00161521849445
-1.55 , 0.00147745968658
-1.53 , 0.00134800644554
-1.51 , 0.00122669751565
-1.49 , 0.00111334144171
-1.47 , 0.00100771960408
-1.45 , 0.000909589327787
-1.43 , 0.000818687028275
-1.41 , 0.000734731358122
-1.39 , 0.000657426320944
-1.37 , 0.000586464321173
-1.35 , 0.000521529121002
-1.33 , 0.000462298678643
-1.31 , 0.000408447845117
-1.29 , 0.000359650899976
-1.27 , 0.000315583909576
-1.25 , 0.000275926894803
-1.23 , 0.000240365798389
-1.21 , 0.000208594245084
-1.19 , 0.000180315091036
-1.17 , 0.000155241761566
-1.15 , 0.000133099379268
-1.13 , 0.000113625686825
-1.11 , 9.65717711695e-05
-1.09 , 8.17025976377e-05
-1.07 , 6.87973644556e-05
-1.05 , 5.76496893673e-05
-1.03 , 4.80676413693e-05
-1.01 , 3.98736314178e-05
-0.99 , 3.29041765929e-05
-0.97 , 2.70095525727e-05
-0.95 , 2.20533493889e-05
-0.93 , 1.79119453267e-05
-0.91 , 1.44739135148e-05
-0.89 , 1.16393752475e-05
-0.87 , 9.31931341487e-06
-0.85 , 7.43485860697e-06
-0.83 , 5.91655954067e-06
-0.81 , 4.70364844373e-06
-0.79 , 3.74331095747e-06
-0.77 , 2.98996900181e-06
-0.75 , 2.40458391185e-06
-0.73 , 1.95398602298e-06
-0.71 , 1.61023577136e-06
-0.69 , 1.35002030589e-06
-0.67 , 1.15408859139e-06
-0.65 , 1.00672703374e-06
-0.63 , 8.95276785854e-07
-0.61 , 8.09693107193e-07
-0.59 , 7.42146454001e-07
-0.57 , 6.86664376085e-07
-0.55 , 6.38812789266e-07
-0.53 , 5.95414779978e-07
-0.51 , 5.54304776487e-07
-0.49 , 5.14115685447e-07
-0.47 , 4.74096436851e-07
-0.45 , 4.33957297745e-07
-0.43 , 3.93740297207e-07
-0.41 , 3.53712143402e-07
-0.39 , 3.14277098877e-07
-0.37 , 2.75907403509e-07
-0.35 , 2.39088986565e-07
-0.33 , 2.04280381527e-07
-0.31 , 1.7188294137e-07
-0.29 , 1.42220640615e-07
-0.27 , 1.15527936844e-07
-0.25 , 9.19443430386e-08
-0.23 , 7.15145283925e-08
-0.21 , 5.41929156342e-08
-0.19 , 3.98518750245e-08
-0.17 , 2.82927277324e-08
-0.15 , 1.92588639569e-08
-0.13 , 1.24503546656e-08
-0.11 , 7.53949172712e-09
-0.09 , 4.18673184381e-09
-0.07 , 2.05654799814e-09
-0.05 , 8.32711521666e-10
-0.03 , 2.32542131965e-10
-0.01 , 1.967625504e-11
0.01 , 1.49195729672e-11
0.03 , 1.0477176368e-10
0.05 , 2.47243297212e-10
0.07 , 4.74628956678e-10
0.09 , 8.92962955823e-10
0.11 , 1.67795797877e-09
0.13 , 3.06732630295e-09
0.15 , 5.34949574011e-09
0.17 , 8.84886599602e-09
0.19 , 1.39079009488e-08
0.21 , 2.08665172306e-08
0.23 , 3.00394065681e-08
0.25 , 4.16921151172e-08
0.27 , 5.60168934303e-08
0.29 , 7.31095211635e-08
0.31 , 9.2948496213e-08
0.33 , 1.15378153498e-07
0.35 , 1.40097438807e-07
0.37 , 1.66656202767e-07
0.39 , 1.94460994104e-07
0.41 , 2.22792415212e-07
0.43 , 2.50836152534e-07
0.45 , 2.77729805796e-07
0.47 , 3.02627610902e-07
0.49 , 3.24785079375e-07
0.51 , 3.43665461523e-07
0.53 , 3.59069780947e-07
