Frequency Analysis
Freq,Power
-14.99 , 3.02102275988e-05
-14.97 , 2.9636200411e-05
-14.95 , 2.90776030252e-05
-14.93 , 2.858259064e-05
-14.91 , 2.82015192965e-05
-14.89 , 2.79861025635e-05
-14.87 , 2.79885214414e-05
-14.85 , 2.82605014183e-05
-14.83 , 2.88523714058e-05
-14.81 , 2.98121198448e-05
-14.79 , 3.11844635955e-05
-14.77 , 3.30099452981e-05
-14.75 , 3.5324074705e-05
-14.73 , 3.8156529052e-05
-14.71 , 4.15304268379e-05
-14.69 , 4.54616884545e-05
-14.67 , 4.99584959319e-05
-14.65 , 5.50208626864e-05
-14.63 , 6.0640322569e-05
-14.61 , 6.67997457568e-05
-14.59 , 7.34732871211e-05
-14.57 , 8.06264706785e-05
-14.55 , 8.82164116131e-05
-14.53 , 9.61921751848e-05
-14.51 , 0.000104495269643
-14.49 , 0.000113060268079
-14.47 , 0.00012181555202
-14.45 , 0.000130684167505
-14.43 , 0.000139584782464
-14.41 , 0.00014843273241
-14.39 , 0.000157141139881
-14.37 , 0.000165622091629
-14.35 , 0.000173787856433
-14.33 , 0.000181552125464
-14.31 , 0.000188831256518
-14.29 , 0.00019554550307
-14.27 , 0.000201620209058
-14.25 , 0.000206986950539
-14.23 , 0.000211584605917
-14.21 , 0.000215360337283
-14.19 , 0.000218270466531
-14.17 , 0.000220281231334
-14.15 , 0.000221369407691
-14.13 , 0.000221522787666
-14.11 , 0.000220740503019
-14.09 , 0.0002190331877
-14.07 , 0.000216422974555
-14.05 , 0.000212943324134
-14.03 , 0.000208638686036
-14.01 , 0.000203563995827
-13.99 , 0.000197784013146
-13.97 , 0.000191372509143
-13.95 , 0.000184411313823
-13.93 , 0.000176989236142
-13.91 , 0.000169200871833
-13.89 , 0.00016114531586
-13.87 , 0.000152924798024
-13.85 , 0.000144643261688
-13.83 , 0.000136404906656
-13.81 , 0.000128312718025
-13.79 , 0.000120467003305
-13.77 , 0.000112963960181
-13.75 , 0.000105894297058
-13.73 , 9.93419279567e-05
-13.71 , 9.33827623686e-05
-13.69 , 8.80836094238e-05
-13.67 , 8.35012141514e-05
-13.65 , 7.96814417174e-05
-13.63 , 7.66586233911e-05
-13.61 , 7.44550755992e-05
-13.59 , 7.30808008448e-05
-13.57 , 7.25333765114e-05
-13.55 , 7.27980347004e-05
-13.53 , 7.38479332939e-05
-13.51 , 7.56446154487e-05
-13.49 , 7.81386517498e-05
-13.47 , 8.1270456338e-05
-13.45 , 8.49712655185e-05
-13.43 , 8.91642646973e-05
-13.41 , 9.3765847033e-05
-13.39 , 9.86869849641e-05
-13.37 , 0.000103834693819
-13.35 , 0.000109113565069
-13.33 , 0.000114427345482
-13.31 , 0.000119680537469
-13.29 , 0.000124779995366
-13.27 , 0.000129636492198
-13.25 , 0.000134166231707
-13.23 , 0.000138292281027
-13.21 , 0.000141945900431
-13.19 , 0.000145067747943
-13.17 , 0.000147608938401
-13.15 , 0.000149531938618
-13.13 , 0.000150811282757
-13.11 , 0.000151434094674
-13.09 , 0.000151400406946
-13.07 , 0.000150723269409
-13.05 , 0.000149428643303
-13.03 , 0.000147555080486
-13.01 , 0.000145153190597
-12.99 , 0.000142284902443
-12.97 , 0.000139022529226
-12.95 , 0.000135447650471
-12.93 , 0.000131649826552
-12.91 , 0.000127725164576
-12.89 , 0.000123774756957
-12.87 , 0.000119903016291
-12.85 , 0.000116215932062
-12.83 , 0.000112819276263
-12.81 , 0.000109816786166
-12.79 , 0.000107308353143
-12.77 , 0.000105388246756
-12.75 , 0.000104143403086
-12.73 , 0.000103651805656
-12.71 , 0.000103980986171
-12.69 , 0.000105186670754
-12.67 , 0.000107311595398
-12.65 , 0.000110384511982
-12.63 , 0.000114419403452
-12.61 , 0.00011941492375
-12.59 , 0.000125354074699
-12.57 , 0.000132204128512
-12.55 , 0.000139916800848
-12.53 , 0.000148428675432
-12.51 , 0.000157661877377
-12.49 , 0.00016752498837
-12.47 , 0.000177914193017
-12.45 , 0.000188714641885
-12.43 , 0.000199802013205
-12.41 , 0.00021104425183
-12.39 , 0.000222303461026
-12.37 , 0.000233437919924
-12.35 , 0.000244304197173
-12.33 , 0.000254759329405
-12.31 , 0.000264663031725
-12.29 , 0.00027387990646
-12.27 , 0.000282281616009
-12.25 , 0.000289748985678
-12.23 , 0.000296174003067
-12.21 , 0.000301461681646
-12.19 , 0.000305531757878
-12.17 , 0.000308320193343
-12.15 , 0.000309780455982
-12.13 , 0.000309884557561
-12.11 , 0.000308623827964
-12.09 , 0.000306009410622
-12.07 , 0.000302072467508
-12.05 , 0.000296864086364
-12.03 , 0.000290454887312
-12.01 , 0.000282934330544
-11.99 , 0.000274409731326
-11.97 , 0.000265004993145
-11.95 , 0.000254859074208
-11.93 , 0.000244124206764
-11.91 , 0.000232963892712
-11.89 , 0.000221550702658
-11.87 , 0.000210063908885
-11.85 , 0.000198686985598
-11.83 , 0.000187605012231
-11.81 , 0.000177002017494
-11.79 , 0.000167058303194
-11.77 , 0.000157947787652
-11.75 , 0.000149835408679
-11.73 , 0.000142874625708
-11.71 , 0.000137205059593
-11.69 , 0.000132950306993
-11.67 , 0.000130215964066
-11.65 , 0.000129087891409
-11.63 , 0.000129630748975
-11.61 , 0.0001318868259
-11.59 , 0.000135875186097
-11.57 , 0.000141591145882
-11.55 , 0.00014900609518
-11.53 , 0.000158067668765
-11.51 , 0.000168700268845
-11.49 , 0.000180805935043
-11.47 , 0.000194265552571
-11.45 , 0.000208940384247
-11.43 , 0.000224673906982
-11.41 , 0.000241293928634
-11.39 , 0.000258614956639
-11.37 , 0.000276440785817
-11.35 , 0.000294567269094
-11.33 , 0.000312785231811
-11.31 , 0.000330883487721
-11.29 , 0.000348651912858
-11.27 , 0.000365884532143
-11.25 , 0.000382382572967
-11.23 , 0.000397957440022
-11.21 , 0.000412433566399
-11.19 , 0.000425651097358
-11.17 , 0.000437468365275
-11.15 , 0.000447764116967
-11.13 , 0.000456439457949
-11.11 , 0.000463419482029
-11.09 , 0.00046865455907
-11.07 , 0.000472121258581
-11.05 , 0.000473822892018
-11.03 , 0.000473789662195
-11.01 , 0.000472078413971
-10.99 , 0.00046877198626
-10.97 , 0.000463978171317
-10.95 , 0.000457828293233
-10.93 , 0.000450475423249
-10.91 , 0.00044209225516
-10.89 , 0.000432868669283
-10.87 , 0.000423009018365
-10.85 , 0.000412729173267
-10.83 , 0.000402253370118
-10.81 , 0.000391810903997
-10.79 , 0.000381632716834
-10.77 , 0.00037194792924
-10.75 , 0.000362980367213
-10.73 , 0.000354945135189
-10.71 , 0.000348045286664
-10.69 , 0.000342468642582
-10.67 , 0.00033838480593
-10.65 , 0.000335942418469
-10.63 , 0.00033526670232
-10.61 , 0.000336457325249
-10.59 , 0.000339586624042
-10.57 , 0.000344698215294
-10.55 , 0.000351806017478
-10.53 , 0.000360893702222
-10.51 , 0.000371914586563
-10.49 , 0.000384791971446
-10.47 , 0.000399419925248
-10.45 , 0.000415664504464
-10.43 , 0.000433365397185
-10.41 , 0.000452337968657
-10.39 , 0.000472375682063
-10.37 , 0.000493252861992
-10.35 , 0.000514727762679
-10.33 , 0.000536545898385
-10.31 , 0.000558443589061
-10.29 , 0.000580151670933
-10.27 , 0.000601399318859
-10.25 , 0.000621917925252
-10.23 , 0.000641444979178
-10.21 , 0.000659727888792
-10.19 , 0.000676527690753
-10.17 , 0.000691622591513
-10.15 , 0.000704811287482
-10.13 , 0.000715916013972
-10.11 , 0.000724785276478
-10.09 , 0.000731296222221
-10.07 , 0.000735356614898
-10.05 , 0.000736906381186
-10.03 , 0.000735918703641
-10.01 , 0.000732400641133
-9.99 , 0.000726393264813
-9.97 , 0.000717971304625
-9.95 , 0.000707242308551
-9.93 , 0.000694345323954
-9.91 , 0.00067944911745
-9.89 , 0.000662749956602
-9.87 , 0.000644468983329
-9.85 , 0.00062484921503
-9.83 , 0.000604152215147
-9.81 , 0.00058265447991
-9.79 , 0.000560643592458
-9.77 , 0.000538414199192
-9.75 , 0.000516263866108
-9.73 , 0.000494488874897
-9.71 , 0.000473380019789
-9.69 , 0.000453218466388
-9.67 , 0.00043427173311
-9.65 , 0.000416789854337
-9.63 , 0.00040100178197
-9.61 , 0.000387112078815
-9.59 , 0.000375297953182
-9.57 , 0.000365706679269
-9.55 , 0.00035845344239
-9.53 , 0.000353619642046
-9.51 , 0.000351251679205
-9.49 , 0.00035136024714
-9.47 , 0.000353920137839
-9.45 , 0.000358870568444
-9.43 , 0.000366116024523
-9.41 , 0.000375527609373
-9.39 , 0.00038694488103
-9.37 , 0.000400178151425
-9.35 , 0.000415011215204
-9.33 , 0.000431204469314
-9.31 , 0.000448498378522
-9.29 , 0.000466617236835
-9.27 , 0.000485273170229
-9.25 , 0.00050417032239
-9.23 , 0.000523009162303
-9.21 , 0.000541490850526
-9.19 , 0.000559321599993
-9.17 , 0.000576216967067
-9.15 , 0.000591906009464
-9.13 , 0.00060613524947
-9.11 , 0.000618672383642
-9.09 , 0.000629309683796
-9.07 , 0.000637867038553
-9.05 , 0.000644194589977
-9.03 , 0.000648174925736
-9.01 , 0.000649724793788
-8.99 , 0.00064879631364
-8.97 , 0.000645377665685
-8.95 , 0.000639493247898
-8.93 , 0.0006312032971
-8.91 , 0.00062060298003
-8.89 , 0.000607820967383
-8.87 , 0.000593017511776
-8.85 , 0.000576382058082
-8.83 , 0.000558130421614
-8.81 , 0.000538501576244
-8.79 , 0.000517754100441
-8.77 , 0.000496162334477
-8.75 , 0.000474012306464
-8.73 , 0.000451597488495
-8.71 , 0.000429214446811
-8.69 , 0.000407158451638
-8.67 , 0.000385719113034
-8.65 , 0.000365176108845
-8.63 , 0.000345795069527
-8.61 , 0.000327823682375
-8.59 , 0.000311488074426
-8.57 , 0.0002969895292
-8.55 , 0.000284501587443
-8.53 , 0.000274167576265
-8.51 , 0.000266098604628
-8.49 , 0.000260372056072
-8.47 , 0.000257030602023
-8.45 , 0.000256081751115
-8.43 , 0.000257497941755
-8.41 , 0.000261217176863
-8.39 , 0.000267144191369
-8.37 , 0.000275152134835
-8.35 , 0.000285084743639
-8.33 , 0.000296758969477
-8.31 , 0.000309968023902
-8.29 , 0.000324484792014
-8.27 , 0.000340065562631
-8.25 , 0.000356454017198
-8.23 , 0.000373385415512
-8.21 , 0.000390590913107
-8.19 , 0.000407801942879
-8.17 , 0.000424754592293
-8.15 , 0.000441193907363
-8.13 , 0.000456878055454
-8.11 , 0.000471582280893
-8.09 , 0.000485102590337
-8.07 , 0.000497259108796
-8.05 , 0.000507899052058
-8.03 , 0.000516899267034
-8.01 , 0.000524168298006
-7.99 , 0.00052964794399
-7.97 , 0.000533314280169
-7.95 , 0.00053517812458
-7.93 , 0.000535284939802
-7.91 , 0.000533714168142
-7.89 , 0.000530578007673
-7.87 , 0.000526019645231
-7.85 , 0.000520210971084
-7.83 , 0.000513349808194
-7.81 , 0.000505656696831
-7.79 , 0.000497371282473
-7.77 , 0.000488748361464
-7.75 , 0.000480053644615
-7.73 , 0.000471559303783
-7.71 , 0.000463539370286
-7.69 , 0.000456265056898
-7.67 , 0.000450000076848
-7.65 , 0.000444996033943
-7.63 , 0.000441487957359
-7.61 , 0.000439690053053
-7.59 , 0.000439791740966
-7.57 , 0.000441954043341
-7.55 , 0.000446306384617
-7.53 , 0.000452943857514
-7.51 , 0.000461925003211
-7.49 , 0.000473270145982
-7.47 , 0.000486960314519
-7.45 , 0.000502936773372
-7.43 , 0.000521101178792
-7.41 , 0.0005413163638
-7.39 , 0.000563407747654
-7.37 , 0.000587165355284
-7.35 , 0.000612346422769
-7.33 , 0.000638678555714
-7.31 , 0.000665863398606
-7.29 , 0.000693580765021
-7.27 , 0.000721493170983
-7.25 , 0.000749250707087
-7.23 , 0.000776496179173
-7.21 , 0.000802870442521
-7.19 , 0.000828017850852
-7.17 , 0.000851591738842
-7.15 , 0.00087325985551
-7.13 , 0.000892709665715
-7.11 , 0.000909653438109
-7.09 , 0.000923833040256
-7.07 , 0.000935024365182
-7.05 , 0.000943041318355
-7.03 , 0.000947739299931
-7.01 , 0.000949018123942
-6.99 , 0.000946824323927
-6.97 , 0.000941152803089
-6.95 , 0.000932047796381
-6.93 , 0.000919603121811
-6.91 , 0.000903961708564
-6.89 , 0.000885314400086
-6.87 , 0.000863898041019
-6.85 , 0.000839992867483
-6.83 , 0.0008139192307
-6.81 , 0.000786033694045
-6.79 , 0.000756724553198
-6.77 , 0.00072640683804
-6.75 , 0.000695516863079
-6.73 , 0.000664506400432
-6.71 , 0.00063383655561
-6.69 , 0.000603971431426
-6.67 , 0.000575371669227
-6.65 , 0.000548487959231
-6.63 , 0.000523754613029
-6.61 , 0.000501583291217
-6.59 , 0.000482356977679
-6.57 , 0.000466424289258
-6.55 , 0.000454094205403
-6.53 , 0.000445631297041
-6.51 , 0.00044125152731
-6.49 , 0.000441118689126
-6.47 , 0.000445341535864
-6.45 , 0.00045397165185
-6.43 , 0.000467002099076
-6.41 , 0.000484366865601
-6.39 , 0.000505941129757
-6.37 , 0.000531542342645
-6.35 , 0.000560932119627
-6.33 , 0.000593818919847
-6.31 , 0.000629861481345
-6.29 , 0.000668672968244
-6.27 , 0.000709825776016
-6.25 , 0.000752856931035
-6.23 , 0.000797274011702
-6.21 , 0.000842561510543
-6.19 , 0.000888187549873
-6.17 , 0.000933610858064
-6.15 , 0.000978287909235
-6.13 , 0.0010216801263
-6.11 , 0.00106326104596
-6.09 , 0.00110252334411
-6.07 , 0.00113898562203
-6.05 , 0.00117219885614
-6.03 , 0.00120175241907
-6.01 , 0.00122727958531
-5.99 , 0.00124846244157
-5.97 , 0.0012650361308
-5.95 , 0.00127679236749
-5.93 , 0.00128358217264
-5.91 , 0.00128531778767
-5.89 , 0.0012819737383
-5.87 , 0.00127358703162
-5.85 , 0.00126025648213
-5.83 , 0.00124214117513
-5.81 , 0.00121945808833
-5.79 , 0.00119247890506
-5.77 , 0.00116152606407
-5.75 , 0.00112696810244
-5.73 , 0.00108921435849
-5.71 , 0.00104870911111
-5.69 , 0.00100592524065
-5.67 , 0.000961357503433
-5.65 , 0.000915515518334
-5.63 , 0.000868916568051
-5.61 , 0.000822078321033
-5.59 , 0.00077551158138
-5.57 , 0.000729713174082
-5.55 , 0.000685159071268
-5.53 , 0.000642297861993
-5.51 , 0.000601544663332
-5.49 , 0.000563275564395
-5.47 , 0.000527822687275
-5.45 , 0.000495469940129
-5.43 , 0.000466449527541
-5.41 , 0.000440939272322
-5.39 , 0.000419060791009
-5.37 , 0.000400878552706
-5.35 , 0.000386399837877
-5.33 , 0.000375575600215
-5.31 , 0.000368302221205
-5.29 , 0.000364424133483
-5.27 , 0.000363737275911
-5.25 , 0.000365993330482
-5.23 , 0.000370904679105
-5.21 , 0.000378150007014
-5.19 , 0.000387380469284
-5.17 , 0.000398226327825
-5.15 , 0.000410303958391
-5.13 , 0.000423223120776
-5.11 , 0.000436594380492
-5.09 , 0.000450036566959
-5.07 , 0.000463184151695
-5.05 , 0.000475694430053
-5.03 , 0.000487254391944
-5.01 , 0.000497587170503
-4.99 , 0.00050645796284
-4.97 , 0.000513679323879
-4.95 , 0.000519115742545
-4.93 , 0.000522687419361
-4.91 , 0.00052437317548
-4.89 , 0.000524212435365
-4.87 , 0.000522306238411
-4.85 , 0.000518817248739
-4.83 , 0.000513968746862
-4.81 , 0.000508042601824
-4.79 , 0.000501376237485
-4.77 , 0.000494358621648
-4.75 , 0.000487425321537
-4.73 , 0.000481052683445
-4.71 , 0.000475751208034
-4.69 , 0.000472058205592
-4.67 , 0.000470529827248
-4.65 , 0.000471732578685
-4.63 , 0.000476234431985
-4.61 , 0.000484595658822
-4.59 , 0.000497359514155
-4.57 , 0.000515042903727
-4.55 , 0.00053812717103
-4.53 , 0.000567049139868
-4.51 , 0.000602192547211
-4.49 , 0.000643879997694
-4.47 , 0.000692365565922
-4.45 , 0.000747828165733
-4.43 , 0.000810365796794
-4.41 , 0.00087999076854
-4.39 , 0.000956625989593
-4.37 , 0.00104010239752
-4.35 , 0.00113015758942
-4.33 , 0.00122643569838
-4.31 , 0.00132848854458
-4.29 , 0.00143577807322
-4.27 , 0.00154768007391
-4.25 , 0.00166348915936
-4.23 , 0.00178242496357
-4.21 , 0.00190363950316
-4.19 , 0.00202622562902
-4.17 , 0.00214922647997
-4.15 , 0.00227164583581
-4.13 , 0.00239245925336
-4.11 , 0.00251062585769
-4.09 , 0.00262510064995
-4.07 , 0.0027348471848
-4.05 , 0.00283885046329
-4.03 , 0.00293612988255
-4.01 , 0.00302575208015
-3.99 , 0.00310684351086
-3.97 , 0.00317860259392
-3.95 , 0.00324031127307
-3.93 , 0.0032913458364
-3.91 , 0.00333118685051
-3.89 , 0.00335942807307
-3.87 , 0.00337578421845
-3.85 , 0.00338009746422
-3.83 , 0.00337234260032
-3.81 , 0.0033526307384
-3.79 , 0.00332121151553
-3.77 , 0.00327847374407
-3.75 , 0.00322494447806
-3.73 , 0.00316128648508
-3.71 , 0.00308829413182
-3.69 , 0.00300688771076
-3.67 , 0.00291810625404
-3.65 , 0.00282309889914
-3.63 , 0.00272311488884
-3.61 , 0.00261949230429
-3.59 , 0.00251364564611
-3.57 , 0.00240705239255
-3.55 , 0.00230123867647
-3.53 , 0.00219776423409
-3.51 , 0.00209820678782
-3.49 , 0.00200414603284
-3.47 , 0.00191714740221
-3.45 , 0.00183874578909
-3.43 , 0.00177042940514
-3.41 , 0.00171362395388
-3.39 , 0.00166967729402
-3.37 , 0.00163984476312
-3.35 , 0.00162527532453
-3.33 , 0.00162699869129
-3.31 , 0.00164591357027
-3.29 , 0.00168277715654
-3.27 , 0.00173819599473
-3.25 , 0.00181261830793
-3.23 , 0.00190632787882
-3.21 , 0.00201943954981
-3.19 , 0.0021518963911
-3.17 , 0.00230346856669
-3.15 , 0.00247375390967
-3.13 , 0.00266218019894
-3.11 , 0.00286800911094
-3.09 , 0.00309034180157
-3.07 , 0.00332812605574
-3.05 , 0.00358016492521
-3.03 , 0.00384512675944
-3.01 , 0.00412155651978
-2.99 , 0.00440788825384
-2.97 , 0.00470245859543
-2.95 , 0.00500352114521
-2.93 , 0.00530926157916
-2.91 , 0.00561781332506
-2.89 , 0.0059272736433
-2.87 , 0.00623571994489
-2.85 , 0.00654122617941
-2.83 , 0.00684187912669
-2.81 , 0.00713579442878
-2.79 , 0.00742113220408
-2.77 , 0.00769611209181
-2.75 , 0.00795902758332
-2.73 , 0.00820825950651
-2.71 , 0.00844228854059
-2.69 , 0.00865970665096
-2.67 , 0.00885922734703
-2.65 , 0.00903969468031
-2.63 , 0.00920009091491
-2.61 , 0.00933954281778
-2.59 , 0.00945732653225
-2.57 , 0.00955287101358
-2.55 , 0.00962576002163
-2.53 , 0.00967573268074
-2.51 , 0.00970268263226
-2.49 , 0.00970665581944
-2.47 , 0.00968784695816
-2.45 , 0.00964659475958
-2.43 , 0.00958337598273
-2.41 , 0.00949879840523
-2.39 , 0.00939359281004
-2.37 , 0.00926860409365
-2.35 , 0.00912478160799
-2.33 , 0.00896316885314
-2.31 , 0.00878489264178
-2.29 , 0.00859115185821
-2.27 , 0.00838320593566
-2.25 , 0.00816236317463
-2.23 , 0.00792996902306
-2.21 , 0.00768739443554
-2.19 , 0.00743602442402
-2.17 , 0.00717724690686
-2.15 , 0.00691244195586
-2.13 , 0.0066429715334
-2.11 , 0.006370169803
-2.09 , 0.00609533408738
-2.07 , 0.00581971653841
-2.05 , 0.00554451657288
-2.03 , 0.00527087411778
-2.01 , 0.00499986369814
-1.99 , 0.00473248938966
-1.97 , 0.00446968064835
-1.95 , 0.00421228901884
-1.93 , 0.00396108571352
-1.91 , 0.00371676004505
-1.89 , 0.0034799186866
-1.87 , 0.0032510857255
-1.85 , 0.00303070346932
-1.83 , 0.00281913395648
-1.81 , 0.00261666111821
-1.79 , 0.00242349353369
-1.77 , 0.00223976771678
-1.75 , 0.00206555186944
-1.73 , 0.00190085003555
-1.71 , 0.00174560658721
-1.69 , 0.00159971097611
-1.67 , 0.00146300268273
-1.65 , 0.001335276298
-1.63 , 0.00121628667409
-1.61 , 0.001105754084
-1.59 , 0.00100336933328
-1.57 , 0.000908798770866
-1.55 , 0.000821689151132
-1.53 , 0.000741672303476
-1.51 , 0.000668369571414
-1.49 , 0.00060139598822
-1.47 , 0.000540364161707
-1.45 , 0.0004848878462
-1.43 , 0.000434585185215
-1.41 , 0.00038908161366
-1.39 , 0.000348012413516
-1.37 , 0.00031102492183
-1.35 , 0.000277780394445
-1.33 , 0.000247955533115
-1.31 , 0.000221243687461
-1.29 , 0.000197355746689
-1.27 , 0.000176020738881
-1.25 , 0.000156986158231
-1.23 , 0.000140018042575
-1.21 , 0.000124900825134
-1.19 , 0.00011143698547
-1.17 , 9.94465252757e-05
-1.15 , 8.87662948245e-05
-1.13 , 7.92491956953e-05
-1.11 , 7.07632848009e-05
-1.09 , 6.319080382e-05
-1.07 , 5.64271569076e-05
-1.05 , 5.03798580656e-05
-1.03 , 4.49674678506e-05
-1.01 , 4.01185372091e-05
-0.99 , 3.57705742231e-05
-0.97 , 3.18690474476e-05
-0.95 , 2.83664373827e-05
-0.93 , 2.52213454755e-05
-0.91 , 2.23976679409e-05
-0.89 , 1.98638396487e-05
-0.87 , 1.75921513877e-05
-0.85 , 1.55581420072e-05
-0.83 , 1.37400652822e-05
-0.81 , 1.21184298613e-05
-0.79 , 1.0675609357e-05
-0.77 , 9.39551853653e-06
-0.75 , 8.26335066672e-06
-0.73 , 7.26537036787e-06
-0.71 , 6.38875583118e-06
-0.69 , 5.62148394655e-06
-0.67 , 4.95225176322e-06
-0.65 , 4.37042774997e-06
-0.63 , 3.86602651966e-06
-0.61 , 3.42970101651e-06
-0.59 , 3.05274661299e-06
-0.57 , 2.72711210719e-06
-0.55 , 2.44541322763e-06
-0.53 , 2.20094492059e-06
-0.51 , 1.98768939201e-06
-0.49 , 1.80031758297e-06
-0.47 , 1.63418245303e-06
-0.45 , 1.48530311327e-06
-0.43 , 1.35033947351e-06
-0.41 , 1.22655763191e-06
-0.39 , 1.11178672912e-06
-0.37 , 1.00436840368e-06
-0.35 , 9.0310031428e-07
-0.33 , 8.07175434228e-07
-0.31 , 7.16118972723e-07
-0.29 , 6.29724837932e-07
-0.27 , 5.47993532316e-07
-0.25 , 4.71073267276e-07
-0.23 , 3.99205910146e-07
-0.21 , 3.32679141781e-07
-0.19 , 2.71785918596e-07
-0.17 , 2.16792011496e-07
-0.15 , 1.67912048539e-07
-0.13 , 1.25294132028e-07
-0.11 , 8.90127473532e-08
-0.09 , 5.9069343448e-08
-0.07 , 3.53996555125e-08
-0.05 , 1.78865711052e-08
-0.03 , 6.37712076376e-09
-0.01 , 7.02012508505e-10
0.01 , 6.96032526797e-10
0.03 , 6.21760672621e-09
0.05 , 1.71658622716e-08
0.07 , 3.34936450966e-08
0.09 , 5.52151369305e-08
0.11 , 8.24069696629e-08
0.13 , 1.15202049864e-07
0.15 , 1.53775674008e-07
0.17 , 1.98323925699e-07
0.19 , 2.49034788645e-07
0.21 , 3.06052870762e-07
0.23 , 3.69439102041e-07
0.25 , 4.39127227434e-07
0.27 , 5.14879351586e-07
0.29 , 5.96243190158e-07
0.31 , 6.82514028712e-07
0.33 , 7.72704671389e-07
0.35 , 8.6552686557e-07
